Time (s),Euler Roll (degrees),Euler Pitch (degrees),Euler Yaw (degrees),EKF Position X,EKF Position Y,EKF Position Z
0.0,-6.7874603271484375,2.973360061645508,0.008465328253805637,-0.038129279513988645,-0.08663861470505364,0.7306006294257322
0.020833333333333037,-6.789595127105713,2.972588300704956,0.008322523906826973,-0.03819251246608859,-0.08679031796745144,0.7317914876357667
0.04166666666666696,-6.791730880737305,2.967451572418213,0.008197666145861149,-0.038223545554849636,-0.08694074231889327,0.7329723066261554
0.0625,-6.793601036071777,2.9663422107696533,0.008091862313449383,-0.03828142890551061,-0.08708916242137502,0.7341432128601844
0.08333333333333304,-6.793789863586426,2.967928409576416,0.008086290210485458,-0.03835866081755556,-0.08722563279732934,0.7353129555078247
0.10416666666666696,-6.7940216064453125,2.969536781311035,0.008078301325440407,-0.03843524977366029,-0.08736096707310859,0.7364634856464632
0.125,-6.794450283050537,2.9712252616882324,0.007971621118485928,-0.03851110218189642,-0.08749517938211869,0.7375898792100967
0.14583333333333304,-6.794882297515869,2.9699649810791016,0.007770050782710314,-0.03856510933601449,-0.08762828362432684,0.7387069732407918
0.16666666666666696,-6.795312881469727,2.968669891357422,0.007568361237645149,-0.03861841048404656,-0.08776029347106228,0.7398148824761865
0.1875,-6.795377254486084,2.9671945571899414,0.007387081161141396,-0.038671275193114966,-0.08789122236969707,0.7409353224241169
0.20833333333333304,-6.79094934463501,2.9664595127105713,0.007190832402557135,-0.038730250223974805,-0.08799246874934491,0.7420748553323832
0.22916666666666696,-6.78071928024292,2.9658267498016357,0.007280554156750441,-0.038789308936157875,-0.0880516274491147,0.7432051331836254
0.25,-6.770607948303223,2.9651920795440674,0.007356023415923119,-0.038847889931909706,-0.08811030768857865,0.7443262683194865
0.27083333333333304,-6.760804176330566,2.964557647705078,0.007421140093356371,-0.03890599898658959,-0.08816851525208899,0.7454383712709491
0.29166666666666696,-6.750999450683594,2.9639225006103516,0.0074861496686935425,-0.038963641782846184,-0.08822625583114282,0.7465415507946658
0.3125,-6.7418670654296875,2.9636266231536865,0.007513598073273897,-0.03902082391247036,-0.08828353502623842,0.747603260530468
0.33333333333333304,-6.7351179122924805,2.964096784591675,0.007443030830472708,-0.039083317178785694,-0.08835574774635521,0.7486484137095832
0.35416666666666696,-6.729141712188721,2.9664623737335205,0.007341071497648954,-0.03915843734691703,-0.08843179995584664,0.7496852805676889
0.375,-6.723176956176758,2.9675254821777344,0.007233291864395142,-0.03922400414916177,-0.0885072516257235,0.7507139593046833
0.39583333333333304,-6.716907501220703,2.968438148498535,0.007142314687371254,-0.03928905520165166,-0.08858210984489777,0.7517566229199442
0.41666666666666696,-6.710516929626465,2.969289779663086,0.0070581515319645405,-0.039353596568570785,-0.08865638159116095,0.7528003407527822
0.4375,-6.707486152648926,2.9702937602996826,0.006800651550292969,-0.03941777461495336,-0.08874984733032312,0.753811674499747
0.45833333333333304,-6.7062153816223145,2.971557140350342,0.006469136569648981,-0.03948228172138365,-0.08885289238735082,0.7548025130796403
0.47916666666666696,-6.7049455642700195,2.97282075881958,0.006147425621747971,-0.03954628928225414,-0.08895513948342429,0.7557856787267555
0.5,-6.70396614074707,2.974208116531372,0.005810926668345928,-0.03960980308060454,-0.08905659785621917,0.756742736356349
0.520833333333333,-6.703609466552734,2.9756829738616943,0.005451237317174673,-0.039672828810565976,-0.08915778698021809,0.7576793224067094
0.541666666666667,-6.704620838165283,2.9771523475646973,0.0050041708163917065,-0.03973537207906276,-0.08926907923304739,0.7586087390888494
0.5625,-6.71103572845459,2.9780335426330566,0.003888787468895316,-0.039794519103155686,-0.089414683385782,0.7595315383787438
0.583333333333333,-6.71660852432251,2.9779746532440186,0.0028243486303836107,-0.03985045045201676,-0.08955919711849056,0.7605031652314982
0.604166666666667,-6.7221784591674805,2.9779112339019775,0.0017603635787963867,-0.039905958520386524,-0.08970261715109112,0.7614678771224132
0.625,-6.710291862487793,2.9780001640319824,0.0016063298098742962,-0.039961048097587965,-0.08973332011722869,0.7624253157987292
0.645833333333333,-6.676994323730469,2.979705333709717,0.0025664980057626963,-0.040025071174384357,-0.08962253127783007,0.7633755632461866
0.666666666666667,-6.6439290046691895,2.983379602432251,0.0031128351110965014,-0.04010166133351645,-0.08951257170928724,0.7643187002230949
0.6875,-6.611248016357422,2.9873058795928955,0.002580849453806877,-0.0401800746055211,-0.0894034321335044,0.7652548062832171
0.708333333333333,-6.579020023345947,2.991840362548828,0.0018940771697089076,-0.04026199301095903,-0.0892951034102597,0.7661759959890946
0.729166666666667,-6.537827491760254,2.9965405464172363,0.0016790671506896615,-0.04034330521880238,-0.08912775465432923,0.7670752720847922
0.75,-6.4951558113098145,3.000084161758423,0.001161670428700745,-0.0404169421480507,-0.08894964811010408,0.7679679185251937
0.770833333333333,-6.453060150146484,3.0008697509765625,-0.00028134402236901224,-0.040473311254708884,-0.08877285013188714,0.7688540083949907
0.791666666666667,-6.411423683166504,3.0016539096832275,-0.0017468159785494208,-0.04052926783506665,-0.08859734634695184,0.76973361370873
0.8125,-6.370228290557861,3.0024383068084717,-0.0032357745803892612,-0.04058481640361758,-0.08842312259225601,0.770606805430333
0.833333333333333,-6.329178810119629,3.0029163360595703,-0.004732869565486908,-0.040640605885219554,-0.08825016491063219,0.7715181218652127
0.854166666666667,-6.2395853996276855,3.003401756286621,-0.004147579427808523,-0.04069625063695652,-0.08777067546003323,0.7724407200971346
0.875,-6.12034797668457,3.0039687156677246,-0.002219138666987419,-0.04075149404670587,-0.08710113706092339,0.7733566640793647
0.895833333333333,-6.002219200134277,3.0045275688171387,-0.00035559191019274294,-0.04080634044344067,-0.08643641130730428,0.7742660255862703
0.916666666666667,-5.885280132293701,3.005078077316284,0.0014469749294221401,-0.04086079409410914,-0.08577644647464784,0.7751688753638507
0.9375,-5.7307209968566895,3.0057313442230225,0.005224477965384722,-0.040914859204741985,-0.08486537910113755,0.7760763367696775
0.958333333333333,-5.551164150238037,3.0064010620117188,0.010318274609744549,-0.0409682898469622,-0.08378547751929055,0.7769849214602973
0.979166666666667,-5.37335205078125,3.0063323974609375,0.015227706171572208,-0.04101718072631302,-0.08271322807053512,0.7778870692270397
1.0,-5.197181701660156,3.006404161453247,0.021133383736014366,-0.04106572646386718,-0.08164854967369252,0.7787828482748516
1.020833333333333,-5.022700786590576,3.0064518451690674,0.02694392018020153,-0.041113930703847626,-0.08059105342476869,0.7796723128200262
1.041666666666667,-4.8287034034729,3.006728410720825,0.03377167135477066,-0.041161797039362125,-0.07939894810351658,0.7805495536454687
1.0625,-4.6411566734313965,3.0057811737060547,0.041294027119874954,-0.041209329013296395,-0.07821262710513693,0.7815609059143457
1.083333333333333,-4.455625534057617,3.00807523727417,0.04997815191745758,-0.04127750176065774,-0.0770345658019067,0.7825709695498029
1.104166666666667,-4.27498722076416,3.014749526977539,0.05841284245252609,-0.0413735344658898,-0.07588577913534275,0.7835740263417038
1.125,-4.104602336883545,3.020169258117676,0.06632357090711594,-0.04146890325001957,-0.07477641184395781,0.7846978301791496
1.145833333333333,-3.942223072052002,3.0235626697540283,0.0738157331943512,-0.041563614978272795,-0.0736746885212312,0.7860246085565078
1.166666666666667,-3.7813491821289062,3.027006149291992,0.08349622040987015,-0.04165767642156561,-0.07258053039658297,0.7873422775867254
1.1875,-3.5840702056884766,3.028653860092163,0.09553754329681396,-0.04173838363613629,-0.07120798109077595,0.7886509308199042
1.208333333333333,-3.3799633979797363,3.02616810798645,0.10792073607444763,-0.041789607544408386,-0.06978076304632012,0.7899506605297941
1.229166666666667,-3.1752398014068604,3.0242936611175537,0.12090131640434265,-0.041840483375678535,-0.06836324521256569,0.7911771852828366
1.25,-2.9716498851776123,3.0225627422332764,0.135512113571167,-0.0418910146682779,-0.06695532898328281,0.7923760777390499
1.270833333333333,-2.7626824378967285,3.020779609680176,0.15039758384227753,-0.041941204912751065,-0.06550121135912738,0.7935668781222909
1.291666666666667,-2.552774429321289,3.0177948474884033,0.16531340777873993,-0.041982307166149355,-0.06403533990698036,0.7947496681382012
1.3125,-2.344728708267212,3.0038902759552,0.18127518892288208,-0.041949162636745266,-0.06257929756613445,0.7959245283963584
1.333333333333333,-2.138629198074341,2.9851131439208984,0.1976364701986313,-0.04188218134862879,-0.06113298575510929,0.7970915384285948
1.354166666666667,-1.9379324913024902,2.9661927223205566,0.2136489301919937,-0.04181564626774016,-0.05969630720606479,0.7983320432824889
1.375,-1.74077570438385,2.9482531547546387,0.22941051423549652,-0.04175620862787365,-0.0582691659429929,0.7996014975296047
1.395833333333333,-1.535181999206543,2.940541982650757,0.24718573689460754,-0.04176548728555574,-0.056770265801901705,0.8008625537062318
1.416666666666667,-1.326194405555725,2.932953357696533,0.26630476117134094,-0.04177470482256904,-0.0552369578401031,0.8021152949305831
1.4375,-1.1653004884719849,2.9253628253936768,0.28293514251708984,-0.04178386184185536,-0.054071753205352395,0.8033126650377693
1.458333333333333,-1.0045090913772583,2.918079376220703,0.29953768849372864,-0.04179295893845368,-0.05291418215866315,0.8044602756793631
1.479166666666667,-0.8452975153923035,2.907432794570923,0.3160400390625,-0.041780122178211164,-0.0517641698879176,0.8056003937420663
1.5,-0.7143251299858093,2.8931057453155518,0.3310767710208893,-0.04174379602667195,-0.050801412924601476,0.8067330924171555
1.520833333333333,-0.6162517070770264,2.878699779510498,0.3458259403705597,-0.041707705610341074,-0.050058238568929984,0.8078584439459249
1.541666666666667,-0.5117486119270325,2.865753412246704,0.3627248704433441,-0.04167184864132397,-0.04931986983610768,0.8086867691584495
1.5625,-0.40753743052482605,2.8530304431915283,0.38242262601852417,-0.041636222861230615,-0.048586260236113996,0.809484812602438
1.583333333333333,-0.348736971616745,2.840428113937378,0.40016287565231323,-0.041600826040700575,-0.04811697949895023,0.8102777299648042
1.604166666666667,-0.29530155658721924,2.8220372200012207,0.41762831807136536,-0.04153185070578402,-0.04768852065379818,0.8109566424514022
1.625,-0.23886582255363464,2.7923967838287354,0.4356802701950073,-0.041398182935740255,-0.04726279687005811,0.811417126763945
1.645833333333333,-0.18262670934200287,2.7627010345458984,0.45376160740852356,-0.04126564390320498,-0.04683978202513704,0.8118746820739918
1.666666666666667,-0.12697747349739075,2.7331833839416504,0.47178953886032104,-0.04113394566953851,-0.04641945032796972,0.8123293362677695
1.6875,-0.07048944383859634,2.701521873474121,0.48939934372901917,-0.04099115260085786,-0.04600177631377682,0.812701144401564
1.708333333333333,-0.014193265698850155,2.6625568866729736,0.505569577217102,-0.040811710788125254,-0.04558673483892043,0.8130443899283789
1.729166666666667,0.055634792894124985,2.623648166656494,0.5223085880279541,-0.04063339654510871,-0.04510487626676142,0.813385479989689
1.75,0.1249733492732048,2.5833024978637695,0.5389474630355835,-0.04045619927096242,-0.04462817789893436,0.8137244348500966
1.770833333333333,0.19972454011440277,2.542607545852661,0.5557184815406799,-0.040280108497277436,-0.04415445592249456,0.8138601937875245
1.791666666666667,0.2763003408908844,2.477735757827759,0.5725060701370239,-0.039999237340833826,-0.04368368252901906,0.813890225096651
1.8125,0.3519771695137024,2.3995261192321777,0.5891653299331665,-0.03965878280004022,-0.043215830255340086,0.8139200713372755
1.833333333333333,0.42839938402175903,2.322097063064575,0.6057018637657166,-0.03932043439794071,-0.042750871978204194,0.8139497342277932
1.854166666666667,0.5049981474876404,2.2428605556488037,0.6202704906463623,-0.03897311287920195,-0.0422887809090286,0.8139792154654002
1.875,0.5799520611763,2.1130545139312744,0.6325218677520752,-0.03841161725293066,-0.04182953058875591,0.8140085167264081
1.895833333333333,0.6385131478309631,1.9791603088378906,0.644014298915863,-0.03785356315496575,-0.0414485741632745,0.8139414329509925
1.916666666666667,0.6816133260726929,1.8424667119979858,0.6548293232917786,-0.03729891902031043,-0.04114162260843582,0.8137832672708388
1.9375,0.6822385191917419,1.6432747840881348,0.6642271280288696,-0.036607087633693865,-0.041008166148300024,0.8131785085088314
1.958333333333333,0.6818399429321289,1.3982384204864502,0.6735876202583313,-0.03575789810481203,-0.04087974113841917,0.8125664161455189
1.979166666666667,0.6814190745353699,1.1553765535354614,0.6829700469970703,-0.03491385026943398,-0.040752093513541816,0.8119580311250716
2.0,0.6810853481292725,0.9024993181228638,0.6923838257789612,-0.034074897538109786,-0.04062521622969771,0.8112462379989838
2.020833333333333,0.6810277700424194,0.6084640622138977,0.7021375298500061,-0.033145180253704144,-0.040499102327738706,0.8103734904631331
2.041666666666667,0.6213239431381226,0.2765989899635315,0.7119773030281067,-0.03205733782531045,-0.04056122282983797,0.809505980816007
2.0625,0.522030770778656,-0.05107995495200157,0.721123993396759,-0.03097600311685505,-0.04075225845088623,0.8086436620222206
2.083333333333333,0.4185938537120819,-0.3740040361881256,0.7306825518608093,-0.029901117864281807,-0.04096180744108726,0.8077966943473993
2.104166666666667,0.3161017894744873,-0.6937716603279114,0.7408588528633118,-0.02883262449678693,-0.04117011012859872,0.8069571748214355
2.125,0.20932769775390625,-1.011160969734192,0.7517349720001221,-0.02777046612653897,-0.04139387080658806,0.80612263393118
2.145833333333333,0.0908329039812088,-1.3365706205368042,0.7632485628128052,-0.02665791095965008,-0.04166664198718879,0.8052930274976368
2.166666666666667,-0.019547319039702415,-1.7005252838134766,0.7745184898376465,-0.0253567130860532,-0.041937805281627716,0.8044683118628171
2.1875,-0.12608826160430908,-2.0772688388824463,0.7859684228897095,-0.023976513958986076,-0.04220737487401942,0.8036484438820889
2.208333333333333,-0.1802080273628235,-2.462414264678955,0.7958539724349976,-0.02256531433425939,-0.04229841985015313,0.8028333809166546
2.229166666666667,-0.20709122717380524,-2.827160358428955,0.8049238324165344,-0.02116235911605922,-0.04229985582234719,0.8021605576737253
2.25,-0.23113559186458588,-3.152174949645996,0.8136366605758667,-0.019729122043374715,-0.042301283245601555,0.801823116356645
2.270833333333333,-0.2547055184841156,-3.4782910346984863,0.8197311758995056,-0.018280358028039158,-0.04230270219445666,0.8014876360734116
2.291666666666667,-0.2781171500682831,-3.800039052963257,0.8259985446929932,-0.016839984177981198,-0.04230411274258946,0.8011540997749406
2.3125,-0.30286937952041626,-4.118993282318115,0.8324324488639832,-0.015407927760230027,-0.04230551496282556,0.8008224906091336
2.333333333333333,-0.32834967970848083,-4.440688133239746,0.8372934460639954,-0.013951278520198234,-0.04230690892715117,0.800492791918063
2.354166666666667,-0.3533201813697815,-4.76466178894043,0.8407138586044312,-0.012472827443546976,-0.042308294706725966,0.8001649872351682
2.375,-0.3781002163887024,-5.0857462882995605,0.8442932367324829,-0.011002840187165169,-0.04230967237189406,0.799839060282525
2.395833333333333,-0.39924678206443787,-5.396693706512451,0.8479369282722473,-0.009541244216864694,-0.042311041992196215,0.7995755651213262
2.416666666666667,-0.383018434047699,-5.693385601043701,0.8480575084686279,-0.008087967824639056,-0.042158357235486464,0.7993878393358939
2.4375,-0.3297139108181,-5.9683380126953125,0.8443995714187622,-0.006642940116933599,-0.04183933202968842,0.7993572492721647
2.458333333333333,-0.2907533049583435,-6.237371921539307,0.8420077562332153,-0.005206091003115216,-0.04158337489733519,0.7993417566237665
2.479166666666667,-0.2525615096092224,-6.512234210968018,0.8395097255706787,-0.0037263198915130176,-0.0413288621918094,0.7993263524746048
2.5,-0.21519635617733002,-6.795134544372559,0.8369409441947937,-0.002180839651193187,-0.041075781708584704,0.7993110360769135
2.520833333333333,-0.1727103441953659,-7.0714287757873535,0.8335657715797424,-0.0006477109339315516,-0.04079965052249081,0.7992958066913154
2.541666666666667,-0.12114351242780685,-7.3216142654418945,0.8273654580116272,0.000876837917944026,-0.04046932770409395,0.7995070912860611
2.5625,-0.07281496375799179,-7.544313430786133,0.8172265887260437,0.002392878792515639,-0.04014084816918789,0.7999904694987995
2.583333333333333,-0.025566866621375084,-7.756226539611816,0.8064343333244324,0.003900482777280859,-0.03981419651641464,0.800535489301351
2.604166666666667,0.022374840453267097,-7.965102195739746,0.7955451011657715,0.005399720170266472,-0.0394893575154581,0.8010774854106452
2.625,0.06559189409017563,-8.171408653259277,0.7852283716201782,0.006890660490957595,-0.03919079553969337,0.8016236031204664
2.645833333333333,0.10613427311182022,-8.371349334716797,0.77487713098526,0.00836223199329488,-0.03890451863579064,0.8021980926369601
2.666666666666667,0.1468391865491867,-8.56017780303955,0.7629190683364868,0.00976759402541694,-0.0386198171606898,0.802769421294951
2.6875,0.18625913560390472,-8.705796241760254,0.7510564923286438,0.01092536692399295,-0.03834692193757446,0.8033376151424483
2.708333333333333,0.22531381249427795,-8.825700759887695,0.7392594814300537,0.011932964828361267,-0.03808166279895783,0.8038936953953929
2.729166666666667,0.2640722692012787,-8.944677352905273,0.7274388670921326,0.012935062911549625,-0.03781785142350575,0.8044407670540735
2.75,0.25947704911231995,-9.058778762817383,0.7218948006629944,0.013931706126613654,-0.037764838411918786,0.8049848616234381
2.770833333333333,0.22044894099235535,-9.170624732971191,0.7214539647102356,0.014922938938225003,-0.037881226788268774,0.8055260033708529
2.791666666666667,0.18160761892795563,-9.269144058227539,0.7211005687713623,0.015845199299550843,-0.03799698479965317,0.8060642163007466
2.8125,0.14225737750530243,-9.33022689819336,0.7208107113838196,0.016577082941845057,-0.03811211755668512,0.8065995241581654
2.833333333333333,0.1026957556605339,-9.364070892333984,0.7205782532691956,0.01717229843495615,-0.0382266301149036,0.8071319504322702
2.854166666666667,0.05865593999624252,-9.397160530090332,0.7210911512374878,0.017764317690014957,-0.03836326721160336,0.8076615183597655
2.875,0.014873376116156578,-9.43012809753418,0.7210202217102051,0.018353166412085457,-0.0385005048979132,0.8081882509282908
2.895833333333333,-0.029218170791864395,-9.40740966796875,0.7202205061912537,0.01867886000467588,-0.038637009290428674,0.8087121708797474
2.916666666666667,-0.07079076766967773,-9.373702049255371,0.7189832329750061,0.018972880925536544,-0.038772786255111394,0.809358145308711
2.9375,-0.10928131639957428,-9.333695411682129,0.7169920206069946,0.01926534002027207,-0.03890784159554881,0.8102320296834632
2.958333333333333,-0.11904297024011612,-9.268073081970215,0.7100202441215515,0.01942880457360543,-0.0388903781654927,0.8111218630123288
2.979166666666667,-0.12202040106058121,-9.148900985717773,0.6993470191955566,0.019311767200563035,-0.038840780026499315,0.8120069945003588
3.0,-0.13016001880168915,-9.03106689453125,0.6888245940208435,0.019195347162285315,-0.038817948458282,0.8128874613634883
3.020833333333333,-0.14013312757015228,-8.914131164550781,0.6785351634025574,0.019079539585286583,-0.038802845703799584,0.8137014202147961
3.041666666666667,-0.15125131607055664,-8.794873237609863,0.6683883666992188,0.01896433964722233,-0.03878782194781619,0.814316206770429
3.0625,-0.17018957436084747,-8.675738334655762,0.659379780292511,0.018849742576220394,-0.038809108706268004,0.8149277792474854
